#  E (eV)   dos(E)     Int dos(E)
  0.567  0.1043E-03  0.1043E-06
  0.568  0.1210E-03  0.2253E-06
  0.569  0.1403E-03  0.3656E-06
  0.570  0.1625E-03  0.5282E-06
  0.571  0.1880E-03  0.7161E-06
  0.572  0.2172E-03  0.9334E-06
  0.573  0.2507E-03  0.1184E-05
  0.574  0.2889E-03  0.1473E-05
  0.575  0.3327E-03  0.1806E-05
  0.576  0.3826E-03  0.2188E-05
  0.577  0.4395E-03  0.2628E-05
  0.578  0.5042E-03  0.3132E-05
  0.579  0.5779E-03  0.3710E-05
  0.580  0.6615E-03  0.4371E-05
  0.581  0.7563E-03  0.5128E-05
  0.582  0.8637E-03  0.5991E-05
  0.583  0.9852E-03  0.6977E-05
  0.584  0.1123E-02  0.8099E-05
  0.585  0.1278E-02  0.9377E-05
  0.586  0.1452E-02  0.1083E-04
  0.587  0.1649E-02  0.1248E-04
  0.588  0.1870E-02  0.1435E-04
  0.589  0.2118E-02  0.1647E-04
  0.590  0.2397E-02  0.1886E-04
  0.591  0.2709E-02  0.2157E-04
  0.592  0.3058E-02  0.2463E-04
  0.593  0.3448E-02  0.2808E-04
  0.594  0.3883E-02  0.3196E-04
  0.595  0.4368E-02  0.3633E-04
  0.596  0.4908E-02  0.4124E-04
  0.597  0.5509E-02  0.4675E-04
  0.598  0.6176E-02  0.5292E-04
  0.599  0.6915E-02  0.5984E-04
  0.600  0.7734E-02  0.6757E-04
  0.601  0.8641E-02  0.7621E-04
  0.602  0.9642E-02  0.8585E-04
  0.603  0.1075E-01  0.9660E-04
  0.604  0.1196E-01  0.1086E-03
  0.605  0.1331E-01  0.1219E-03
  0.606  0.1478E-01  0.1366E-03
  0.607  0.1640E-01  0.1530E-03
  0.608  0.1817E-01  0.1712E-03
  0.609  0.2011E-01  0.1913E-03
  0.610  0.2224E-01  0.2136E-03
  0.611  0.2456E-01  0.2381E-03
  0.612  0.2709E-01  0.2652E-03
  0.613  0.2986E-01  0.2951E-03
  0.614  0.3286E-01  0.3279E-03
  0.615  0.3612E-01  0.3641E-03
  0.616  0.3967E-01  0.4037E-03
  0.617  0.4351E-01  0.4472E-03
  0.618  0.4767E-01  0.4949E-03
  0.619  0.5216E-01  0.5471E-03
  0.620  0.5702E-01  0.6041E-03
  0.621  0.6226E-01  0.6663E-03
  0.622  0.6790E-01  0.7342E-03
  0.623  0.7396E-01  0.8082E-03
  0.624  0.8048E-01  0.8887E-03
  0.625  0.8748E-01  0.9762E-03
  0.626  0.9497E-01  0.1071E-02
  0.627  0.1030E+00  0.1174E-02
  0.628  0.1116E+00  0.1286E-02
  0.629  0.1207E+00  0.1406E-02
  0.630  0.1304E+00  0.1537E-02
  0.631  0.1408E+00  0.1678E-02
  0.632  0.1519E+00  0.1830E-02
  0.633  0.1636E+00  0.1993E-02
  0.634  0.1760E+00  0.2169E-02
  0.635  0.1891E+00  0.2358E-02
  0.636  0.2030E+00  0.2561E-02
  0.637  0.2177E+00  0.2779E-02
  0.638  0.2332E+00  0.3012E-02
  0.639  0.2494E+00  0.3261E-02
  0.640  0.2666E+00  0.3528E-02
  0.641  0.2846E+00  0.3813E-02
  0.642  0.3034E+00  0.4116E-02
  0.643  0.3232E+00  0.4439E-02
  0.644  0.3439E+00  0.4783E-02
  0.645  0.3654E+00  0.5149E-02
  0.646  0.3879E+00  0.5536E-02
  0.647  0.4114E+00  0.5948E-02
  0.648  0.4358E+00  0.6384E-02
  0.649  0.4611E+00  0.6845E-02
  0.650  0.4873E+00  0.7332E-02
  0.651  0.5145E+00  0.7846E-02
  0.652  0.5426E+00  0.8389E-02
  0.653  0.5716E+00  0.8961E-02
  0.654  0.6015E+00  0.9562E-02
  0.655  0.6323E+00  0.1019E-01
  0.656  0.6639E+00  0.1086E-01
  0.657  0.6964E+00  0.1155E-01
  0.658  0.7297E+00  0.1228E-01
  0.659  0.7637E+00  0.1305E-01
  0.660  0.7985E+00  0.1385E-01
  0.661  0.8340E+00  0.1468E-01
  0.662  0.8701E+00  0.1555E-01
  0.663  0.9069E+00  0.1646E-01
  0.664  0.9442E+00  0.1740E-01
  0.665  0.9820E+00  0.1838E-01
  0.666  0.1020E+01  0.1940E-01
  0.667  0.1059E+01  0.2046E-01
  0.668  0.1098E+01  0.2156E-01
  0.669  0.1137E+01  0.2270E-01
  0.670  0.1176E+01  0.2387E-01
  0.671  0.1216E+01  0.2509E-01
  0.672  0.1256E+01  0.2635E-01
  0.673  0.1295E+01  0.2764E-01
  0.674  0.1335E+01  0.2898E-01
  0.675  0.1374E+01  0.3035E-01
  0.676  0.1413E+01  0.3176E-01
  0.677  0.1452E+01  0.3321E-01
  0.678  0.1490E+01  0.3470E-01
  0.679  0.1528E+01  0.3623E-01
  0.680  0.1565E+01  0.3780E-01
  0.681  0.1602E+01  0.3940E-01
  0.682  0.1638E+01  0.4104E-01
  0.683  0.1673E+01  0.4271E-01
  0.684  0.1708E+01  0.4442E-01
  0.685  0.1741E+01  0.4616E-01
  0.686  0.1774E+01  0.4793E-01
  0.687  0.1805E+01  0.4974E-01
  0.688  0.1836E+01  0.5158E-01
  0.689  0.1865E+01  0.5344E-01
  0.690  0.1893E+01  0.5533E-01
  0.691  0.1920E+01  0.5725E-01
  0.692  0.1946E+01  0.5920E-01
  0.693  0.1970E+01  0.6117E-01
  0.694  0.1993E+01  0.6316E-01
  0.695  0.2014E+01  0.6518E-01
  0.696  0.2035E+01  0.6721E-01
  0.697  0.2053E+01  0.6927E-01
  0.698  0.2070E+01  0.7134E-01
  0.699  0.2086E+01  0.7342E-01
  0.700  0.2101E+01  0.7552E-01
  0.701  0.2113E+01  0.7764E-01
  0.702  0.2125E+01  0.7976E-01
  0.703  0.2134E+01  0.8189E-01
  0.704  0.2143E+01  0.8404E-01
  0.705  0.2150E+01  0.8619E-01
  0.706  0.2155E+01  0.8834E-01
  0.707  0.2159E+01  0.9050E-01
  0.708  0.2162E+01  0.9266E-01
  0.709  0.2163E+01  0.9483E-01
  0.710  0.2163E+01  0.9699E-01
  0.711  0.2162E+01  0.9915E-01
  0.712  0.2159E+01  0.1013E+00
  0.713  0.2156E+01  0.1035E+00
  0.714  0.2151E+01  0.1056E+00
  0.715  0.2145E+01  0.1078E+00
  0.716  0.2137E+01  0.1099E+00
  0.717  0.2129E+01  0.1120E+00
  0.718  0.2120E+01  0.1141E+00
  0.719  0.2109E+01  0.1163E+00
  0.720  0.2098E+01  0.1184E+00
  0.721  0.2086E+01  0.1204E+00
  0.722  0.2073E+01  0.1225E+00
  0.723  0.2060E+01  0.1246E+00
  0.724  0.2045E+01  0.1266E+00
  0.725  0.2030E+01  0.1287E+00
  0.726  0.2015E+01  0.1307E+00
  0.727  0.1998E+01  0.1327E+00
  0.728  0.1982E+01  0.1346E+00
  0.729  0.1964E+01  0.1366E+00
  0.730  0.1947E+01  0.1386E+00
  0.731  0.1928E+01  0.1405E+00
  0.732  0.1910E+01  0.1424E+00
  0.733  0.1891E+01  0.1443E+00
  0.734  0.1872E+01  0.1462E+00
  0.735  0.1853E+01  0.1480E+00
  0.736  0.1833E+01  0.1498E+00
  0.737  0.1813E+01  0.1517E+00
  0.738  0.1794E+01  0.1535E+00
  0.739  0.1774E+01  0.1552E+00
  0.740  0.1754E+01  0.1570E+00
  0.741  0.1734E+01  0.1587E+00
  0.742  0.1713E+01  0.1604E+00
  0.743  0.1693E+01  0.1621E+00
  0.744  0.1673E+01  0.1638E+00
  0.745  0.1654E+01  0.1654E+00
  0.746  0.1634E+01  0.1671E+00
  0.747  0.1614E+01  0.1687E+00
  0.748  0.1594E+01  0.1703E+00
  0.749  0.1575E+01  0.1719E+00
  0.750  0.1556E+01  0.1734E+00
  0.751  0.1537E+01  0.1750E+00
  0.752  0.1518E+01  0.1765E+00
  0.753  0.1500E+01  0.1780E+00
  0.754  0.1482E+01  0.1795E+00
  0.755  0.1464E+01  0.1809E+00
  0.756  0.1447E+01  0.1824E+00
  0.757  0.1430E+01  0.1838E+00
  0.758  0.1413E+01  0.1852E+00
  0.759  0.1396E+01  0.1866E+00
  0.760  0.1380E+01  0.1880E+00
  0.761  0.1365E+01  0.1894E+00
  0.762  0.1350E+01  0.1907E+00
  0.763  0.1335E+01  0.1920E+00
  0.764  0.1321E+01  0.1934E+00
  0.765  0.1307E+01  0.1947E+00
  0.766  0.1294E+01  0.1960E+00
  0.767  0.1281E+01  0.1972E+00
  0.768  0.1268E+01  0.1985E+00
  0.769  0.1256E+01  0.1998E+00
  0.770  0.1245E+01  0.2010E+00
  0.771  0.1234E+01  0.2022E+00
  0.772  0.1224E+01  0.2035E+00
  0.773  0.1214E+01  0.2047E+00
  0.774  0.1204E+01  0.2059E+00
  0.775  0.1195E+01  0.2071E+00
  0.776  0.1187E+01  0.2083E+00
  0.777  0.1179E+01  0.2094E+00
  0.778  0.1171E+01  0.2106E+00
  0.779  0.1164E+01  0.2118E+00
  0.780  0.1158E+01  0.2129E+00
  0.781  0.1152E+01  0.2141E+00
  0.782  0.1146E+01  0.2152E+00
  0.783  0.1141E+01  0.2164E+00
  0.784  0.1136E+01  0.2175E+00
  0.785  0.1131E+01  0.2186E+00
  0.786  0.1127E+01  0.2198E+00
  0.787  0.1123E+01  0.2209E+00
  0.788  0.1120E+01  0.2220E+00
  0.789  0.1116E+01  0.2231E+00
  0.790  0.1114E+01  0.2242E+00
  0.791  0.1111E+01  0.2254E+00
  0.792  0.1108E+01  0.2265E+00
  0.793  0.1106E+01  0.2276E+00
  0.794  0.1104E+01  0.2287E+00
  0.795  0.1102E+01  0.2298E+00
  0.796  0.1101E+01  0.2309E+00
  0.797  0.1099E+01  0.2320E+00
  0.798  0.1097E+01  0.2331E+00
  0.799  0.1096E+01  0.2342E+00
  0.800  0.1094E+01  0.2353E+00
  0.801  0.1093E+01  0.2364E+00
  0.802  0.1091E+01  0.2374E+00
  0.803  0.1090E+01  0.2385E+00
  0.804  0.1088E+01  0.2396E+00
  0.805  0.1086E+01  0.2407E+00
  0.806  0.1084E+01  0.2418E+00
  0.807  0.1082E+01  0.2429E+00
  0.808  0.1080E+01  0.2440E+00
  0.809  0.1077E+01  0.2450E+00
  0.810  0.1075E+01  0.2461E+00
  0.811  0.1072E+01  0.2472E+00
  0.812  0.1069E+01  0.2482E+00
  0.813  0.1065E+01  0.2493E+00
  0.814  0.1062E+01  0.2504E+00
  0.815  0.1058E+01  0.2514E+00
  0.816  0.1053E+01  0.2525E+00
  0.817  0.1049E+01  0.2535E+00
  0.818  0.1044E+01  0.2546E+00
  0.819  0.1039E+01  0.2556E+00
  0.820  0.1033E+01  0.2567E+00
  0.821  0.1027E+01  0.2577E+00
  0.822  0.1021E+01  0.2587E+00
  0.823  0.1014E+01  0.2597E+00
  0.824  0.1008E+01  0.2607E+00
  0.825  0.1000E+01  0.2617E+00
  0.826  0.9929E+00  0.2627E+00
  0.827  0.9851E+00  0.2637E+00
  0.828  0.9771E+00  0.2647E+00
  0.829  0.9687E+00  0.2656E+00
  0.830  0.9602E+00  0.2666E+00
  0.831  0.9513E+00  0.2676E+00
  0.832  0.9423E+00  0.2685E+00
  0.833  0.9330E+00  0.2694E+00
  0.834  0.9236E+00  0.2704E+00
  0.835  0.9140E+00  0.2713E+00
  0.836  0.9043E+00  0.2722E+00
  0.837  0.8945E+00  0.2731E+00
  0.838  0.8846E+00  0.2740E+00
  0.839  0.8746E+00  0.2748E+00
  0.840  0.8646E+00  0.2757E+00
  0.841  0.8546E+00  0.2765E+00
  0.842  0.8446E+00  0.2774E+00
  0.843  0.8347E+00  0.2782E+00
  0.844  0.8249E+00  0.2791E+00
  0.845  0.8152E+00  0.2799E+00
  0.846  0.8056E+00  0.2807E+00
  0.847  0.7962E+00  0.2815E+00
  0.848  0.7870E+00  0.2823E+00
  0.849  0.7781E+00  0.2830E+00
  0.850  0.7694E+00  0.2838E+00
  0.851  0.7611E+00  0.2846E+00
  0.852  0.7530E+00  0.2853E+00
  0.853  0.7453E+00  0.2861E+00
  0.854  0.7380E+00  0.2868E+00
  0.855  0.7311E+00  0.2875E+00
  0.856  0.7246E+00  0.2883E+00
  0.857  0.7185E+00  0.2890E+00
  0.858  0.7129E+00  0.2897E+00
  0.859  0.7078E+00  0.2904E+00
  0.860  0.7032E+00  0.2911E+00
  0.861  0.6991E+00  0.2918E+00
  0.862  0.6956E+00  0.2925E+00
  0.863  0.6926E+00  0.2932E+00
  0.864  0.6902E+00  0.2939E+00
  0.865  0.6883E+00  0.2946E+00
  0.866  0.6870E+00  0.2953E+00
  0.867  0.6862E+00  0.2959E+00
  0.868  0.6861E+00  0.2966E+00
  0.869  0.6865E+00  0.2973E+00
  0.870  0.6875E+00  0.2980E+00
  0.871  0.6890E+00  0.2987E+00
  0.872  0.6911E+00  0.2994E+00
  0.873  0.6938E+00  0.3001E+00
  0.874  0.6970E+00  0.3008E+00
  0.875  0.7007E+00  0.3015E+00
  0.876  0.7049E+00  0.3022E+00
  0.877  0.7096E+00  0.3029E+00
  0.878  0.7147E+00  0.3036E+00
  0.879  0.7203E+00  0.3043E+00
  0.880  0.7263E+00  0.3050E+00
  0.881  0.7327E+00  0.3058E+00
  0.882  0.7395E+00  0.3065E+00
  0.883  0.7466E+00  0.3073E+00
  0.884  0.7540E+00  0.3080E+00
  0.885  0.7616E+00  0.3088E+00
  0.886  0.7695E+00  0.3095E+00
  0.887  0.7776E+00  0.3103E+00
  0.888  0.7858E+00  0.3111E+00
  0.889  0.7942E+00  0.3119E+00
  0.890  0.8026E+00  0.3127E+00
  0.891  0.8111E+00  0.3135E+00
  0.892  0.8195E+00  0.3143E+00
  0.893  0.8280E+00  0.3152E+00
  0.894  0.8363E+00  0.3160E+00
  0.895  0.8445E+00  0.3168E+00
  0.896  0.8526E+00  0.3177E+00
  0.897  0.8605E+00  0.3186E+00
  0.898  0.8681E+00  0.3194E+00
  0.899  0.8754E+00  0.3203E+00
  0.900  0.8824E+00  0.3212E+00
  0.901  0.8891E+00  0.3221E+00
  0.902  0.8954E+00  0.3230E+00
  0.903  0.9012E+00  0.3239E+00
  0.904  0.9066E+00  0.3248E+00
  0.905  0.9115E+00  0.3257E+00
  0.906  0.9158E+00  0.3266E+00
  0.907  0.9196E+00  0.3275E+00
  0.908  0.9229E+00  0.3284E+00
  0.909  0.9255E+00  0.3294E+00
  0.910  0.9275E+00  0.3303E+00
  0.911  0.9288E+00  0.3312E+00
  0.912  0.9295E+00  0.3322E+00
  0.913  0.9295E+00  0.3331E+00
  0.914  0.9288E+00  0.3340E+00
  0.915  0.9274E+00  0.3349E+00
  0.916  0.9253E+00  0.3359E+00
  0.917  0.9225E+00  0.3368E+00
  0.918  0.9190E+00  0.3377E+00
  0.919  0.9148E+00  0.3386E+00
  0.920  0.9098E+00  0.3395E+00
  0.921  0.9041E+00  0.3404E+00
  0.922  0.8978E+00  0.3413E+00
  0.923  0.8907E+00  0.3422E+00
  0.924  0.8830E+00  0.3431E+00
  0.925  0.8747E+00  0.3440E+00
  0.926  0.8657E+00  0.3449E+00
  0.927  0.8561E+00  0.3457E+00
  0.928  0.8459E+00  0.3466E+00
  0.929  0.8351E+00  0.3474E+00
  0.930  0.8238E+00  0.3482E+00
  0.931  0.8120E+00  0.3490E+00
  0.932  0.7998E+00  0.3498E+00
  0.933  0.7871E+00  0.3506E+00
  0.934  0.7740E+00  0.3514E+00
  0.935  0.7606E+00  0.3521E+00
  0.936  0.7469E+00  0.3529E+00
  0.937  0.7329E+00  0.3536E+00
  0.938  0.7186E+00  0.3543E+00
  0.939  0.7042E+00  0.3551E+00
  0.940  0.6896E+00  0.3557E+00
  0.941  0.6749E+00  0.3564E+00
  0.942  0.6602E+00  0.3571E+00
  0.943  0.6454E+00  0.3577E+00
  0.944  0.6307E+00  0.3584E+00
  0.945  0.6161E+00  0.3590E+00
  0.946  0.6016E+00  0.3596E+00
  0.947  0.5872E+00  0.3602E+00
  0.948  0.5731E+00  0.3607E+00
  0.949  0.5592E+00  0.3613E+00
  0.950  0.5457E+00  0.3618E+00
  0.951  0.5324E+00  0.3624E+00
  0.952  0.5196E+00  0.3629E+00
  0.953  0.5071E+00  0.3634E+00
  0.954  0.4951E+00  0.3639E+00
  0.955  0.4836E+00  0.3644E+00
  0.956  0.4726E+00  0.3648E+00
  0.957  0.4622E+00  0.3653E+00
  0.958  0.4523E+00  0.3658E+00
  0.959  0.4431E+00  0.3662E+00
  0.960  0.4345E+00  0.3666E+00
  0.961  0.4266E+00  0.3671E+00
  0.962  0.4193E+00  0.3675E+00
  0.963  0.4128E+00  0.3679E+00
  0.964  0.4069E+00  0.3683E+00
  0.965  0.4018E+00  0.3687E+00
  0.966  0.3975E+00  0.3691E+00
  0.967  0.3939E+00  0.3695E+00
  0.968  0.3910E+00  0.3699E+00
  0.969  0.3890E+00  0.3703E+00
  0.970  0.3877E+00  0.3707E+00
  0.971  0.3872E+00  0.3711E+00
  0.972  0.3874E+00  0.3714E+00
  0.973  0.3885E+00  0.3718E+00
  0.974  0.3903E+00  0.3722E+00
  0.975  0.3928E+00  0.3726E+00
  0.976  0.3961E+00  0.3730E+00
  0.977  0.4001E+00  0.3734E+00
  0.978  0.4049E+00  0.3738E+00
  0.979  0.4103E+00  0.3742E+00
  0.980  0.4165E+00  0.3746E+00
  0.981  0.4232E+00  0.3751E+00
  0.982  0.4307E+00  0.3755E+00
  0.983  0.4387E+00  0.3759E+00
  0.984  0.4474E+00  0.3764E+00
  0.985  0.4566E+00  0.3768E+00
  0.986  0.4663E+00  0.3773E+00
  0.987  0.4766E+00  0.3778E+00
  0.988  0.4873E+00  0.3783E+00
  0.989  0.4985E+00  0.3788E+00
  0.990  0.5101E+00  0.3793E+00
  0.991  0.5221E+00  0.3798E+00
  0.992  0.5344E+00  0.3803E+00
  0.993  0.5470E+00  0.3809E+00
  0.994  0.5598E+00  0.3814E+00
  0.995  0.5730E+00  0.3820E+00
  0.996  0.5863E+00  0.3826E+00
  0.997  0.5997E+00  0.3832E+00
  0.998  0.6133E+00  0.3838E+00
  0.999  0.6269E+00  0.3844E+00
  1.000  0.6406E+00  0.3851E+00
  1.001  0.6543E+00  0.3857E+00
  1.002  0.6679E+00  0.3864E+00
  1.003  0.6815E+00  0.3871E+00
  1.004  0.6949E+00  0.3878E+00
  1.005  0.7082E+00  0.3885E+00
  1.006  0.7213E+00  0.3892E+00
  1.007  0.7341E+00  0.3899E+00
  1.008  0.7467E+00  0.3907E+00
  1.009  0.7589E+00  0.3914E+00
  1.010  0.7708E+00  0.3922E+00
  1.011  0.7824E+00  0.3930E+00
  1.012  0.7935E+00  0.3938E+00
  1.013  0.8042E+00  0.3946E+00
  1.014  0.8143E+00  0.3954E+00
  1.015  0.8240E+00  0.3962E+00
  1.016  0.8332E+00  0.3971E+00
  1.017  0.8417E+00  0.3979E+00
  1.018  0.8497E+00  0.3988E+00
  1.019  0.8571E+00  0.3996E+00
  1.020  0.8638E+00  0.4005E+00
  1.021  0.8698E+00  0.4013E+00
  1.022  0.8752E+00  0.4022E+00
  1.023  0.8799E+00  0.4031E+00
  1.024  0.8838E+00  0.4040E+00
  1.025  0.8871E+00  0.4049E+00
  1.026  0.8896E+00  0.4058E+00
  1.027  0.8913E+00  0.4067E+00
  1.028  0.8923E+00  0.4075E+00
  1.029  0.8925E+00  0.4084E+00
  1.030  0.8919E+00  0.4093E+00
  1.031  0.8906E+00  0.4102E+00
  1.032  0.8885E+00  0.4111E+00
  1.033  0.8856E+00  0.4120E+00
  1.034  0.8819E+00  0.4129E+00
  1.035  0.8775E+00  0.4138E+00
  1.036  0.8724E+00  0.4146E+00
  1.037  0.8665E+00  0.4155E+00
  1.038  0.8599E+00  0.4164E+00
  1.039  0.8526E+00  0.4172E+00
  1.040  0.8446E+00  0.4181E+00
  1.041  0.8359E+00  0.4189E+00
  1.042  0.8265E+00  0.4197E+00
  1.043  0.8166E+00  0.4205E+00
  1.044  0.8060E+00  0.4213E+00
  1.045  0.7948E+00  0.4221E+00
  1.046  0.7831E+00  0.4229E+00
  1.047  0.7709E+00  0.4237E+00
  1.048  0.7582E+00  0.4244E+00
  1.049  0.7450E+00  0.4252E+00
  1.050  0.7314E+00  0.4259E+00
  1.051  0.7174E+00  0.4266E+00
  1.052  0.7030E+00  0.4273E+00
  1.053  0.6883E+00  0.4280E+00
  1.054  0.6734E+00  0.4287E+00
  1.055  0.6581E+00  0.4294E+00
  1.056  0.6427E+00  0.4300E+00
  1.057  0.6271E+00  0.4306E+00
  1.058  0.6113E+00  0.4312E+00
  1.059  0.5954E+00  0.4318E+00
  1.060  0.5795E+00  0.4324E+00
  1.061  0.5636E+00  0.4330E+00
  1.062  0.5476E+00  0.4335E+00
  1.063  0.5318E+00  0.4341E+00
  1.064  0.5160E+00  0.4346E+00
  1.065  0.5003E+00  0.4351E+00
  1.066  0.4848E+00  0.4356E+00
  1.067  0.4694E+00  0.4360E+00
  1.068  0.4544E+00  0.4365E+00
  1.069  0.4395E+00  0.4369E+00
  1.070  0.4250E+00  0.4373E+00
  1.071  0.4108E+00  0.4378E+00
  1.072  0.3970E+00  0.4382E+00
  1.073  0.3835E+00  0.4385E+00
  1.074  0.3705E+00  0.4389E+00
  1.075  0.3579E+00  0.4393E+00
  1.076  0.3458E+00  0.4396E+00
  1.077  0.3341E+00  0.4399E+00
  1.078  0.3230E+00  0.4403E+00
  1.079  0.3125E+00  0.4406E+00
  1.080  0.3025E+00  0.4409E+00
  1.081  0.2931E+00  0.4412E+00
  1.082  0.2843E+00  0.4415E+00
  1.083  0.2761E+00  0.4417E+00
  1.084  0.2686E+00  0.4420E+00
  1.085  0.2617E+00  0.4423E+00
  1.086  0.2554E+00  0.4425E+00
  1.087  0.2499E+00  0.4428E+00
  1.088  0.2450E+00  0.4430E+00
  1.089  0.2408E+00  0.4433E+00
  1.090  0.2373E+00  0.4435E+00
  1.091  0.2346E+00  0.4437E+00
  1.092  0.2325E+00  0.4440E+00
  1.093  0.2311E+00  0.4442E+00
  1.094  0.2305E+00  0.4444E+00
  1.095  0.2306E+00  0.4447E+00
  1.096  0.2314E+00  0.4449E+00
  1.097  0.2329E+00  0.4451E+00
  1.098  0.2351E+00  0.4454E+00
  1.099  0.2380E+00  0.4456E+00
  1.100  0.2417E+00  0.4458E+00
  1.101  0.2459E+00  0.4461E+00
  1.102  0.2509E+00  0.4463E+00
  1.103  0.2565E+00  0.4466E+00
  1.104  0.2628E+00  0.4469E+00
  1.105  0.2697E+00  0.4471E+00
  1.106  0.2772E+00  0.4474E+00
  1.107  0.2853E+00  0.4477E+00
  1.108  0.2940E+00  0.4480E+00
  1.109  0.3033E+00  0.4483E+00
  1.110  0.3130E+00  0.4486E+00
  1.111  0.3233E+00  0.4489E+00
  1.112  0.3340E+00  0.4493E+00
  1.113  0.3452E+00  0.4496E+00
  1.114  0.3569E+00  0.4500E+00
  1.115  0.3689E+00  0.4503E+00
  1.116  0.3812E+00  0.4507E+00
  1.117  0.3939E+00  0.4511E+00
  1.118  0.4069E+00  0.4515E+00
  1.119  0.4202E+00  0.4519E+00
  1.120  0.4336E+00  0.4524E+00
  1.121  0.4473E+00  0.4528E+00
  1.122  0.4611E+00  0.4533E+00
  1.123  0.4750E+00  0.4537E+00
  1.124  0.4889E+00  0.4542E+00
  1.125  0.5029E+00  0.4547E+00
  1.126  0.5169E+00  0.4553E+00
  1.127  0.5309E+00  0.4558E+00
  1.128  0.5447E+00  0.4563E+00
  1.129  0.5585E+00  0.4569E+00
  1.130  0.5720E+00  0.4575E+00
  1.131  0.5854E+00  0.4580E+00
  1.132  0.5985E+00  0.4586E+00
  1.133  0.6114E+00  0.4593E+00
  1.134  0.6239E+00  0.4599E+00
  1.135  0.6361E+00  0.4605E+00
  1.136  0.6479E+00  0.4612E+00
  1.137  0.6593E+00  0.4618E+00
  1.138  0.6703E+00  0.4625E+00
  1.139  0.6808E+00  0.4632E+00
  1.140  0.6909E+00  0.4639E+00
  1.141  0.7004E+00  0.4646E+00
  1.142  0.7094E+00  0.4653E+00
  1.143  0.7178E+00  0.4660E+00
  1.144  0.7257E+00  0.4667E+00
  1.145  0.7330E+00  0.4674E+00
  1.146  0.7397E+00  0.4682E+00
  1.147  0.7458E+00  0.4689E+00
  1.148  0.7513E+00  0.4697E+00
  1.149  0.7561E+00  0.4704E+00
  1.150  0.7604E+00  0.4712E+00
  1.151  0.7640E+00  0.4720E+00
  1.152  0.7670E+00  0.4727E+00
  1.153  0.7694E+00  0.4735E+00
  1.154  0.7712E+00  0.4743E+00
  1.155  0.7724E+00  0.4750E+00
  1.156  0.7730E+00  0.4758E+00
  1.157  0.7731E+00  0.4766E+00
  1.158  0.7726E+00  0.4774E+00
  1.159  0.7715E+00  0.4781E+00
  1.160  0.7699E+00  0.4789E+00
  1.161  0.7678E+00  0.4797E+00
  1.162  0.7653E+00  0.4804E+00
  1.163  0.7622E+00  0.4812E+00
  1.164  0.7587E+00  0.4820E+00
  1.165  0.7548E+00  0.4827E+00
  1.166  0.7504E+00  0.4835E+00
  1.167  0.7457E+00  0.4842E+00
  1.168  0.7407E+00  0.4850E+00
  1.169  0.7353E+00  0.4857E+00
  1.170  0.7295E+00  0.4864E+00
  1.171  0.7235E+00  0.4871E+00
  1.172  0.7172E+00  0.4879E+00
  1.173  0.7107E+00  0.4886E+00
  1.174  0.7039E+00  0.4893E+00
  1.175  0.6969E+00  0.4900E+00
  1.176  0.6898E+00  0.4907E+00
  1.177  0.6824E+00  0.4913E+00
  1.178  0.6749E+00  0.4920E+00
  1.179  0.6672E+00  0.4927E+00
  1.180  0.6595E+00  0.4933E+00
  1.181  0.6516E+00  0.4940E+00
  1.182  0.6435E+00  0.4946E+00
  1.183  0.6354E+00  0.4953E+00
  1.184  0.6273E+00  0.4959E+00
  1.185  0.6190E+00  0.4965E+00
  1.186  0.6107E+00  0.4971E+00
  1.187  0.6023E+00  0.4977E+00
  1.188  0.5939E+00  0.4983E+00
  1.189  0.5854E+00  0.4989E+00
